Summary
[Data Information]
Data is:,Measurement Data
Dataset Name:,RawData
Sample Name:,0-40-T-3
Sample ID:,3
Edinburgh
Analyst:,Alexandra
Date/Time:,19/10/2023 13:22:45
Comments:,Triplicate
Parameter File Name:,Uvvis_confirm_alexandra.vspm
Report File Name
[Software Information]
Software Name:,LabSolutions UV-Vis
Version:,1.12
[Instrument Information]
Instrument Name:,UV
Instrument Type:,UV-1900 Series
Model (S/N):,1900 (A12535951280)

Parameter
[Measurement]
Start:,665 nm
End:,250 nm
Data Interval:,1.0
Scan Speed:,Medium speed
Spectrum Type:,Absorbance
[Accessories]
Accessories:,None
[Advanced]
Light Source Switch Wavelength:,340.00
S/R Switch:,Standard
[Repeat]
Repeat Measurement:,OFF
[Post-processing]
Spectrum Transformation:,OFF
Data Processing Table:,OFF
Print:,OFF

Wavelength (nm),Absorbance
250.0,0.563
251.0,0.559
252.0,0.554
253.0,0.549
254.0,0.544
255.0,0.540
256.0,0.536
257.0,0.532
258.0,0.528
259.0,0.524
260.0,0.520
261.0,0.516
262.0,0.513
263.0,0.509
264.0,0.505
265.0,0.501
266.0,0.497
267.0,0.493
268.0,0.490
269.0,0.486
270.0,0.482
271.0,0.478
272.0,0.474
273.0,0.470
274.0,0.465
275.0,0.461
276.0,0.457
277.0,0.452
278.0,0.448
279.0,0.444
280.0,0.439
281.0,0.434
282.0,0.430
283.0,0.425
284.0,0.420
285.0,0.414
286.0,0.409
287.0,0.404
288.0,0.398
289.0,0.393
290.0,0.388
291.0,0.383
292.0,0.378
293.0,0.372
294.0,0.367
295.0,0.362
296.0,0.357
297.0,0.352
298.0,0.348
299.0,0.343
300.0,0.338
301.0,0.334
302.0,0.329
303.0,0.325
304.0,0.321
305.0,0.317
306.0,0.313
307.0,0.309
308.0,0.305
309.0,0.301
310.0,0.297
311.0,0.293
312.0,0.290
313.0,0.286
314.0,0.283
315.0,0.279
316.0,0.275
317.0,0.272
318.0,0.268
319.0,0.265
320.0,0.262
321.0,0.258
322.0,0.255
323.0,0.252
324.0,0.249
325.0,0.246
326.0,0.242
327.0,0.239
328.0,0.236
329.0,0.233
330.0,0.230
331.0,0.227
332.0,0.224
333.0,0.221
334.0,0.218
335.0,0.215
336.0,0.212
337.0,0.209
338.0,0.206
339.0,0.202
340.0,0.199
341.0,0.197
342.0,0.193
343.0,0.190
344.0,0.188
345.0,0.185
346.0,0.182
347.0,0.179
348.0,0.176
349.0,0.174
350.0,0.171
351.0,0.168
352.0,0.166
353.0,0.163
354.0,0.161
355.0,0.158
356.0,0.156
357.0,0.153
358.0,0.151
359.0,0.149
360.0,0.147
361.0,0.144
362.0,0.142
363.0,0.140
364.0,0.138
365.0,0.135
366.0,0.133
367.0,0.131
368.0,0.129
369.0,0.127
370.0,0.125
371.0,0.123
372.0,0.122
373.0,0.120
374.0,0.118
375.0,0.116
376.0,0.114
377.0,0.113
378.0,0.111
379.0,0.110
380.0,0.108
381.0,0.106
382.0,0.105
383.0,0.103
384.0,0.102
385.0,0.100
386.0,0.099
387.0,0.098
388.0,0.096
389.0,0.095
390.0,0.094
391.0,0.092
392.0,0.091
393.0,0.090
394.0,0.089
395.0,0.088
396.0,0.087
397.0,0.086
398.0,0.085
399.0,0.083
400.0,0.082
401.0,0.081
402.0,0.080
403.0,0.080
404.0,0.079
405.0,0.078
406.0,0.077
407.0,0.076
408.0,0.075
409.0,0.074
410.0,0.073
411.0,0.072
412.0,0.071
413.0,0.070
414.0,0.070
415.0,0.069
416.0,0.068
417.0,0.067
418.0,0.066
419.0,0.065
420.0,0.064
421.0,0.063
422.0,0.063
423.0,0.062
424.0,0.061
425.0,0.060
426.0,0.060
427.0,0.059
428.0,0.058
429.0,0.058
430.0,0.057
431.0,0.057
432.0,0.056
433.0,0.055
434.0,0.055
435.0,0.054
436.0,0.054
437.0,0.053
438.0,0.053
439.0,0.052
440.0,0.052
441.0,0.051
442.0,0.051
443.0,0.050
444.0,0.050
445.0,0.049
446.0,0.049
447.0,0.049
448.0,0.048
449.0,0.048
450.0,0.047
451.0,0.047
452.0,0.047
453.0,0.046
454.0,0.046
455.0,0.045
456.0,0.045
457.0,0.045
458.0,0.044
459.0,0.044
460.0,0.044
461.0,0.043
462.0,0.043
463.0,0.043
464.0,0.042
465.0,0.042
466.0,0.042
467.0,0.041
468.0,0.041
469.0,0.041
470.0,0.040
471.0,0.040
472.0,0.040
473.0,0.039
474.0,0.039
475.0,0.039
476.0,0.039
477.0,0.038
478.0,0.038
479.0,0.038
480.0,0.037
481.0,0.037
482.0,0.037
483.0,0.036
484.0,0.036
485.0,0.036
486.0,0.035
487.0,0.035
488.0,0.035
489.0,0.034
490.0,0.034
491.0,0.034
492.0,0.034
493.0,0.033
494.0,0.033
495.0,0.033
496.0,0.032
497.0,0.032
498.0,0.032
499.0,0.031
500.0,0.031
501.0,0.031
502.0,0.031
503.0,0.030
504.0,0.030
505.0,0.030
506.0,0.029
507.0,0.029
508.0,0.029
509.0,0.029
510.0,0.028
511.0,0.028
512.0,0.028
513.0,0.027
514.0,0.027
515.0,0.027
516.0,0.027
517.0,0.026
518.0,0.026
519.0,0.026
520.0,0.026
521.0,0.025
522.0,0.025
523.0,0.025
524.0,0.025
525.0,0.024
526.0,0.024
527.0,0.024
528.0,0.024
529.0,0.023
530.0,0.023
531.0,0.023
532.0,0.023
533.0,0.023
534.0,0.022
535.0,0.022
536.0,0.022
537.0,0.022
538.0,0.021
539.0,0.021
540.0,0.021
541.0,0.021
542.0,0.021
543.0,0.020
544.0,0.020
545.0,0.020
546.0,0.020
547.0,0.020
548.0,0.019
549.0,0.019
550.0,0.019
551.0,0.019
552.0,0.019
553.0,0.019
554.0,0.018
555.0,0.018
556.0,0.018
557.0,0.018
558.0,0.018
559.0,0.018
560.0,0.017
561.0,0.017
562.0,0.017
563.0,0.017
564.0,0.017
565.0,0.016
566.0,0.016
567.0,0.016
568.0,0.016
569.0,0.016
570.0,0.016
571.0,0.015
572.0,0.015
573.0,0.015
574.0,0.015
575.0,0.015
576.0,0.015
577.0,0.014
578.0,0.014
579.0,0.014
580.0,0.014
581.0,0.014
582.0,0.014
583.0,0.014
584.0,0.013
585.0,0.013
586.0,0.013
587.0,0.013
588.0,0.013
589.0,0.013
590.0,0.013
591.0,0.013
592.0,0.012
593.0,0.012
594.0,0.012
595.0,0.012
596.0,0.012
597.0,0.012
598.0,0.012
599.0,0.012
600.0,0.012
601.0,0.011
602.0,0.011
603.0,0.011
604.0,0.011
605.0,0.011
606.0,0.011
607.0,0.011
608.0,0.011
609.0,0.010
610.0,0.010
611.0,0.010
612.0,0.010
613.0,0.010
614.0,0.010
615.0,0.010
616.0,0.009
617.0,0.009
618.0,0.009
619.0,0.009
620.0,0.009
621.0,0.009
622.0,0.009
623.0,0.009
624.0,0.008
625.0,0.008
626.0,0.008
627.0,0.008
628.0,0.008
629.0,0.008
630.0,0.008
631.0,0.007
632.0,0.007
633.0,0.007
634.0,0.007
635.0,0.007
636.0,0.007
637.0,0.007
638.0,0.007
639.0,0.006
640.0,0.006
641.0,0.006
642.0,0.006
643.0,0.006
644.0,0.006
645.0,0.006
646.0,0.006
647.0,0.006
648.0,0.006
649.0,0.005
650.0,0.005
651.0,0.005
652.0,0.005
653.0,0.005
654.0,0.005
655.0,0.005
656.0,0.005
657.0,0.005
658.0,0.005
659.0,0.005
660.0,0.004
661.0,0.004
662.0,0.004
663.0,0.004
664.0,0.004
665.0,0.004
