Summary
[Data Information]
Data is:,Measurement Data
Dataset Name:,RawData
Sample Name:,10-20-B-1
Sample ID:,1
Edinburgh
Analyst:,Alexandra
Date/Time:,19/10/2023 13:26:26
Comments:,Triplicate
Parameter File Name:,Uvvis_confirm_alexandra.vspm
Report File Name
[Software Information]
Software Name:,LabSolutions UV-Vis
Version:,1.12
[Instrument Information]
Instrument Name:,UV
Instrument Type:,UV-1900 Series
Model (S/N):,1900 (A12535951280)

Parameter
[Measurement]
Start:,665 nm
End:,250 nm
Data Interval:,1.0
Scan Speed:,Medium speed
Spectrum Type:,Absorbance
[Accessories]
Accessories:,None
[Advanced]
Light Source Switch Wavelength:,340.00
S/R Switch:,Standard
[Repeat]
Repeat Measurement:,OFF
[Post-processing]
Spectrum Transformation:,OFF
Data Processing Table:,OFF
Print:,OFF

Wavelength (nm),Absorbance
250.0,0.151
251.0,0.150
252.0,0.149
253.0,0.148
254.0,0.146
255.0,0.145
256.0,0.144
257.0,0.143
258.0,0.142
259.0,0.141
260.0,0.140
261.0,0.140
262.0,0.139
263.0,0.138
264.0,0.137
265.0,0.137
266.0,0.136
267.0,0.135
268.0,0.135
269.0,0.134
270.0,0.133
271.0,0.133
272.0,0.132
273.0,0.132
274.0,0.131
275.0,0.131
276.0,0.130
277.0,0.129
278.0,0.129
279.0,0.128
280.0,0.127
281.0,0.127
282.0,0.126
283.0,0.125
284.0,0.124
285.0,0.123
286.0,0.123
287.0,0.122
288.0,0.121
289.0,0.120
290.0,0.120
291.0,0.119
292.0,0.118
293.0,0.117
294.0,0.116
295.0,0.115
296.0,0.114
297.0,0.113
298.0,0.112
299.0,0.111
300.0,0.110
301.0,0.108
302.0,0.107
303.0,0.106
304.0,0.105
305.0,0.104
306.0,0.103
307.0,0.102
308.0,0.100
309.0,0.099
310.0,0.098
311.0,0.097
312.0,0.095
313.0,0.094
314.0,0.093
315.0,0.091
316.0,0.090
317.0,0.089
318.0,0.088
319.0,0.087
320.0,0.086
321.0,0.085
322.0,0.085
323.0,0.084
324.0,0.083
325.0,0.083
326.0,0.082
327.0,0.082
328.0,0.081
329.0,0.080
330.0,0.080
331.0,0.079
332.0,0.079
333.0,0.078
334.0,0.078
335.0,0.078
336.0,0.077
337.0,0.077
338.0,0.077
339.0,0.076
340.0,0.074
341.0,0.071
342.0,0.070
343.0,0.070
344.0,0.070
345.0,0.069
346.0,0.069
347.0,0.069
348.0,0.068
349.0,0.068
350.0,0.068
351.0,0.068
352.0,0.067
353.0,0.067
354.0,0.066
355.0,0.066
356.0,0.066
357.0,0.065
358.0,0.065
359.0,0.064
360.0,0.064
361.0,0.063
362.0,0.063
363.0,0.062
364.0,0.062
365.0,0.061
366.0,0.060
367.0,0.060
368.0,0.059
369.0,0.058
370.0,0.058
371.0,0.057
372.0,0.056
373.0,0.055
374.0,0.054
375.0,0.054
376.0,0.053
377.0,0.052
378.0,0.051
379.0,0.050
380.0,0.050
381.0,0.049
382.0,0.048
383.0,0.047
384.0,0.047
385.0,0.046
386.0,0.045
387.0,0.044
388.0,0.044
389.0,0.043
390.0,0.043
391.0,0.042
392.0,0.042
393.0,0.041
394.0,0.041
395.0,0.040
396.0,0.040
397.0,0.039
398.0,0.039
399.0,0.039
400.0,0.038
401.0,0.038
402.0,0.038
403.0,0.037
404.0,0.037
405.0,0.037
406.0,0.036
407.0,0.036
408.0,0.036
409.0,0.036
410.0,0.035
411.0,0.035
412.0,0.035
413.0,0.035
414.0,0.034
415.0,0.034
416.0,0.034
417.0,0.034
418.0,0.034
419.0,0.033
420.0,0.033
421.0,0.033
422.0,0.033
423.0,0.032
424.0,0.032
425.0,0.032
426.0,0.031
427.0,0.031
428.0,0.031
429.0,0.031
430.0,0.030
431.0,0.030
432.0,0.030
433.0,0.030
434.0,0.030
435.0,0.029
436.0,0.029
437.0,0.029
438.0,0.029
439.0,0.029
440.0,0.028
441.0,0.028
442.0,0.028
443.0,0.028
444.0,0.028
445.0,0.028
446.0,0.028
447.0,0.028
448.0,0.028
449.0,0.028
450.0,0.028
451.0,0.028
452.0,0.028
453.0,0.028
454.0,0.028
455.0,0.028
456.0,0.028
457.0,0.028
458.0,0.028
459.0,0.028
460.0,0.028
461.0,0.028
462.0,0.028
463.0,0.028
464.0,0.028
465.0,0.028
466.0,0.028
467.0,0.028
468.0,0.028
469.0,0.028
470.0,0.028
471.0,0.028
472.0,0.027
473.0,0.027
474.0,0.028
475.0,0.028
476.0,0.028
477.0,0.028
478.0,0.028
479.0,0.028
480.0,0.028
481.0,0.028
482.0,0.028
483.0,0.028
484.0,0.028
485.0,0.028
486.0,0.027
487.0,0.027
488.0,0.027
489.0,0.027
490.0,0.027
491.0,0.027
492.0,0.027
493.0,0.026
494.0,0.026
495.0,0.026
496.0,0.026
497.0,0.026
498.0,0.026
499.0,0.026
500.0,0.026
501.0,0.026
502.0,0.026
503.0,0.026
504.0,0.026
505.0,0.026
506.0,0.025
507.0,0.025
508.0,0.025
509.0,0.025
510.0,0.025
511.0,0.025
512.0,0.025
513.0,0.025
514.0,0.025
515.0,0.025
516.0,0.025
517.0,0.025
518.0,0.025
519.0,0.025
520.0,0.025
521.0,0.025
522.0,0.025
523.0,0.025
524.0,0.025
525.0,0.025
526.0,0.025
527.0,0.025
528.0,0.025
529.0,0.025
530.0,0.025
531.0,0.024
532.0,0.024
533.0,0.024
534.0,0.024
535.0,0.024
536.0,0.025
537.0,0.026
538.0,0.026
539.0,0.026
540.0,0.026
541.0,0.026
542.0,0.026
543.0,0.026
544.0,0.026
545.0,0.026
546.0,0.026
547.0,0.026
548.0,0.026
549.0,0.026
550.0,0.026
551.0,0.026
552.0,0.026
553.0,0.026
554.0,0.026
555.0,0.026
556.0,0.026
557.0,0.026
558.0,0.026
559.0,0.026
560.0,0.026
561.0,0.026
562.0,0.026
563.0,0.026
564.0,0.026
565.0,0.026
566.0,0.026
567.0,0.026
568.0,0.026
569.0,0.026
570.0,0.026
571.0,0.026
572.0,0.026
573.0,0.026
574.0,0.026
575.0,0.026
576.0,0.026
577.0,0.026
578.0,0.026
579.0,0.026
580.0,0.026
581.0,0.026
582.0,0.026
583.0,0.026
584.0,0.026
585.0,0.026
586.0,0.026
587.0,0.026
588.0,0.026
589.0,0.026
590.0,0.026
591.0,0.026
592.0,0.026
593.0,0.026
594.0,0.026
595.0,0.026
596.0,0.026
597.0,0.026
598.0,0.026
599.0,0.026
600.0,0.026
601.0,0.026
602.0,0.026
603.0,0.026
604.0,0.026
605.0,0.026
606.0,0.026
607.0,0.026
608.0,0.026
609.0,0.026
610.0,0.026
611.0,0.026
612.0,0.026
613.0,0.026
614.0,0.026
615.0,0.026
616.0,0.026
617.0,0.026
618.0,0.026
619.0,0.027
620.0,0.027
621.0,0.027
622.0,0.027
623.0,0.027
624.0,0.027
625.0,0.027
626.0,0.027
627.0,0.027
628.0,0.027
629.0,0.027
630.0,0.027
631.0,0.027
632.0,0.027
633.0,0.027
634.0,0.027
635.0,0.027
636.0,0.027
637.0,0.027
638.0,0.027
639.0,0.027
640.0,0.027
641.0,0.027
642.0,0.027
643.0,0.027
644.0,0.027
645.0,0.027
646.0,0.027
647.0,0.027
648.0,0.027
649.0,0.027
650.0,0.027
651.0,0.027
652.0,0.027
653.0,0.027
654.0,0.027
655.0,0.027
656.0,0.027
657.0,0.027
658.0,0.027
659.0,0.027
660.0,0.027
661.0,0.027
662.0,0.027
663.0,0.027
664.0,0.027
665.0,0.027
