Summary
[Data Information]
Data is:,Measurement Data
Dataset Name:,RawData
Sample Name:,20-10-B
Sample ID:,1
Edinburgh
Analyst:,Alexandra
Date/Time:,19/10/2023 14:33:02
Comments
Parameter File Name:,Uvvis_confirm_alexandra.vspm
Report File Name
[Software Information]
Software Name:,LabSolutions UV-Vis
Version:,1.12
[Instrument Information]
Instrument Name:,UV
Instrument Type:,UV-1900 Series
Model (S/N):,1900 (A12535951280)

Parameter
[Measurement]
Start:,665 nm
End:,250 nm
Data Interval:,1.0
Scan Speed:,Medium speed
Spectrum Type:,Absorbance
[Accessories]
Accessories:,None
[Advanced]
Light Source Switch Wavelength:,340.00
S/R Switch:,Standard
[Repeat]
Repeat Measurement:,OFF
[Post-processing]
Spectrum Transformation:,OFF
Data Processing Table:,OFF
Print:,OFF

Wavelength (nm),Absorbance
250.0,2.089
251.0,2.079
252.0,2.070
253.0,2.058
254.0,2.044
255.0,2.032
256.0,2.020
257.0,2.011
258.0,2.001
259.0,1.988
260.0,1.977
261.0,1.966
262.0,1.955
263.0,1.943
264.0,1.932
265.0,1.920
266.0,1.907
267.0,1.895
268.0,1.883
269.0,1.870
270.0,1.856
271.0,1.845
272.0,1.833
273.0,1.820
274.0,1.804
275.0,1.790
276.0,1.776
277.0,1.761
278.0,1.748
279.0,1.733
280.0,1.718
281.0,1.703
282.0,1.689
283.0,1.673
284.0,1.659
285.0,1.645
286.0,1.630
287.0,1.614
288.0,1.599
289.0,1.584
290.0,1.570
291.0,1.556
292.0,1.541
293.0,1.525
294.0,1.510
295.0,1.498
296.0,1.483
297.0,1.469
298.0,1.455
299.0,1.442
300.0,1.429
301.0,1.414
302.0,1.400
303.0,1.387
304.0,1.374
305.0,1.360
306.0,1.346
307.0,1.333
308.0,1.320
309.0,1.305
310.0,1.291
311.0,1.276
312.0,1.263
313.0,1.251
314.0,1.237
315.0,1.221
316.0,1.209
317.0,1.196
318.0,1.182
319.0,1.169
320.0,1.158
321.0,1.145
322.0,1.133
323.0,1.121
324.0,1.109
325.0,1.097
326.0,1.086
327.0,1.074
328.0,1.062
329.0,1.052
330.0,1.041
331.0,1.029
332.0,1.018
333.0,1.009
334.0,0.998
335.0,0.988
336.0,0.978
337.0,0.966
338.0,0.956
339.0,0.946
340.0,0.936
341.0,0.926
342.0,0.916
343.0,0.907
344.0,0.897
345.0,0.888
346.0,0.877
347.0,0.868
348.0,0.858
349.0,0.849
350.0,0.839
351.0,0.829
352.0,0.820
353.0,0.810
354.0,0.801
355.0,0.791
356.0,0.782
357.0,0.772
358.0,0.763
359.0,0.754
360.0,0.744
361.0,0.734
362.0,0.725
363.0,0.715
364.0,0.705
365.0,0.694
366.0,0.684
367.0,0.674
368.0,0.664
369.0,0.653
370.0,0.644
371.0,0.633
372.0,0.624
373.0,0.614
374.0,0.604
375.0,0.594
376.0,0.584
377.0,0.574
378.0,0.564
379.0,0.555
380.0,0.545
381.0,0.536
382.0,0.527
383.0,0.518
384.0,0.509
385.0,0.500
386.0,0.491
387.0,0.483
388.0,0.475
389.0,0.466
390.0,0.459
391.0,0.451
392.0,0.444
393.0,0.437
394.0,0.430
395.0,0.423
396.0,0.416
397.0,0.410
398.0,0.404
399.0,0.398
400.0,0.392
401.0,0.386
402.0,0.380
403.0,0.375
404.0,0.370
405.0,0.364
406.0,0.359
407.0,0.354
408.0,0.349
409.0,0.344
410.0,0.339
411.0,0.335
412.0,0.330
413.0,0.325
414.0,0.321
415.0,0.316
416.0,0.311
417.0,0.307
418.0,0.302
419.0,0.298
420.0,0.294
421.0,0.290
422.0,0.286
423.0,0.281
424.0,0.278
425.0,0.274
426.0,0.270
427.0,0.266
428.0,0.262
429.0,0.258
430.0,0.255
431.0,0.251
432.0,0.247
433.0,0.244
434.0,0.241
435.0,0.237
436.0,0.234
437.0,0.231
438.0,0.228
439.0,0.225
440.0,0.222
441.0,0.219
442.0,0.217
443.0,0.214
444.0,0.211
445.0,0.209
446.0,0.207
447.0,0.205
448.0,0.203
449.0,0.201
450.0,0.199
451.0,0.197
452.0,0.195
453.0,0.193
454.0,0.192
455.0,0.190
456.0,0.188
457.0,0.187
458.0,0.185
459.0,0.184
460.0,0.182
461.0,0.181
462.0,0.179
463.0,0.178
464.0,0.176
465.0,0.175
466.0,0.174
467.0,0.172
468.0,0.171
469.0,0.169
470.0,0.168
471.0,0.167
472.0,0.165
473.0,0.164
474.0,0.163
475.0,0.161
476.0,0.160
477.0,0.158
478.0,0.157
479.0,0.156
480.0,0.154
481.0,0.153
482.0,0.151
483.0,0.150
484.0,0.148
485.0,0.147
486.0,0.145
487.0,0.144
488.0,0.142
489.0,0.141
490.0,0.139
491.0,0.138
492.0,0.136
493.0,0.135
494.0,0.133
495.0,0.132
496.0,0.130
497.0,0.129
498.0,0.128
499.0,0.126
500.0,0.125
501.0,0.123
502.0,0.122
503.0,0.120
504.0,0.119
505.0,0.118
506.0,0.116
507.0,0.115
508.0,0.114
509.0,0.112
510.0,0.111
511.0,0.110
512.0,0.108
513.0,0.107
514.0,0.106
515.0,0.105
516.0,0.103
517.0,0.102
518.0,0.101
519.0,0.100
520.0,0.099
521.0,0.098
522.0,0.096
523.0,0.095
524.0,0.094
525.0,0.093
526.0,0.092
527.0,0.091
528.0,0.090
529.0,0.089
530.0,0.088
531.0,0.087
532.0,0.086
533.0,0.085
534.0,0.084
535.0,0.083
536.0,0.082
537.0,0.081
538.0,0.080
539.0,0.079
540.0,0.078
541.0,0.077
542.0,0.077
543.0,0.076
544.0,0.075
545.0,0.074
546.0,0.073
547.0,0.073
548.0,0.072
549.0,0.071
550.0,0.070
551.0,0.070
552.0,0.069
553.0,0.068
554.0,0.068
555.0,0.067
556.0,0.066
557.0,0.066
558.0,0.065
559.0,0.064
560.0,0.064
561.0,0.063
562.0,0.062
563.0,0.062
564.0,0.061
565.0,0.060
566.0,0.060
567.0,0.059
568.0,0.059
569.0,0.058
570.0,0.057
571.0,0.057
572.0,0.056
573.0,0.056
574.0,0.055
575.0,0.055
576.0,0.054
577.0,0.053
578.0,0.053
579.0,0.052
580.0,0.052
581.0,0.051
582.0,0.051
583.0,0.051
584.0,0.050
585.0,0.050
586.0,0.049
587.0,0.049
588.0,0.048
589.0,0.048
590.0,0.047
591.0,0.047
592.0,0.047
593.0,0.046
594.0,0.046
595.0,0.046
596.0,0.045
597.0,0.045
598.0,0.045
599.0,0.044
600.0,0.044
601.0,0.043
602.0,0.043
603.0,0.043
604.0,0.042
605.0,0.042
606.0,0.042
607.0,0.041
608.0,0.041
609.0,0.040
610.0,0.040
611.0,0.040
612.0,0.039
613.0,0.039
614.0,0.039
615.0,0.038
616.0,0.038
617.0,0.037
618.0,0.037
619.0,0.037
620.0,0.036
621.0,0.036
622.0,0.035
623.0,0.035
624.0,0.035
625.0,0.034
626.0,0.034
627.0,0.034
628.0,0.033
629.0,0.033
630.0,0.033
631.0,0.032
632.0,0.032
633.0,0.031
634.0,0.031
635.0,0.031
636.0,0.030
637.0,0.030
638.0,0.030
639.0,0.029
640.0,0.029
641.0,0.029
642.0,0.028
643.0,0.028
644.0,0.028
645.0,0.027
646.0,0.027
647.0,0.027
648.0,0.027
649.0,0.026
650.0,0.026
651.0,0.026
652.0,0.025
653.0,0.025
654.0,0.025
655.0,0.024
656.0,0.024
657.0,0.024
658.0,0.024
659.0,0.023
660.0,0.023
661.0,0.023
662.0,0.022
663.0,0.022
664.0,0.022
665.0,0.022
